Time  Sample#  Type   Pred   RR   RR_avg
0:00.122      44  +  T
0:00.447     161  N  T
0:01.439     518  N  T
0:02.361     850  N  T
0:03.364    1211  N  T
0:04.525    1629  N  T
0:05.492    1977  N  T
0:06.464    2327  N  T
0:07.497    2699  N  T
0:08.514    3065  N  T
0:09.461    3406  N  T
0:10.381    3737  N  T
0:11.428    4114  N  T
0:12.467    4488  N  T
0:13.397    4823  N  T
0:14.386    5179  N  T
0:15.331    5519  N  T
0:16.236    5845  N  T
0:17.114    6161  N  T
0:18.047    6497  N  T
0:19.047    6857  N  N   360.0   352.42105263157896
0:19.944    7180  N  N   323.0   350.95
0:20.822    7496  N  N   316.0   349.2857142857143
0:21.767    7836  N  N   340.0   348.8636363636364
0:22.736    8185  N  N   349.0   348.8695652173913
0:23.661    8518  N  N   333.0   348.2083333333333
0:24.528    8830  N  N   312.0   346.76
0:25.456    9164  N  N   334.0   346.2692307692308
0:26.383    9498  N  N   334.0   345.81481481481484
0:27.336    9841  N  N   343.0   345.7142857142857
0:28.217   10158  N  N   317.0   344.7241379310345
0:29.144   10492  N  N   334.0   344.3666666666667
0:30.078   10828  N  N   336.0   344.0967741935484
0:30.994   11158  N  N   330.0   343.65625
0:31.869   11473  N  N   315.0   342.7878787878788
0:32.750   11790  N  N   317.0   342.02941176470586
0:33.647   12113  N  N   323.0   341.48571428571427
0:34.525   12429  N  N   316.0   340.77777777777777
0:35.375   12735  N  N   306.0   339.8378378378378
0:36.353   13087  N  N   352.0   340.1578947368421
0:37.286   13423  N  N   336.0   340.05128205128204
0:38.150   13734  N  N   311.0   339.325
0:39.133   14088  N  N   354.0   339.25
0:40.194   14470  N  N   382.0   340.5
0:41.136   14809  N  N   339.0   339.95
0:42.194   15190  N  N   381.0   339.025
0:43.333   15600  N  A   410.0   339.025
0:44.344   15964  N  N   364.0   339.425
0:45.328   16318  N  N   354.0   339.525
0:46.375   16695  N  N   377.0   339.65
0:47.419   17071  N  N   376.0   339.9
0:48.406   17426  N  N   355.0   340.25
0:49.408   17787  N  N   361.0   341.0
0:50.453   18163  N  N   376.0   340.975
0:51.439   18518  N  N   355.0   340.5
0:52.400   18864  N  N   346.0   340.775
0:53.378   19216  N  N   352.0   340.675
0:54.356   19568  N  N   352.0   340.975
0:55.228   19882  N  N   314.0   340.675
0:56.119   20203  N  N   321.0   340.8
0:57.053   20539  N  N   336.0   340.8
0:57.986   20875  N  N   336.0   340.2
0:58.819   21175  N  N   300.0   339.625
0:59.689   21488  N  N   313.0   339.55
1:00.644   21832  N  N   344.0   339.65
1:01.581   22169  N  N   337.0   339.35
1:02.553   22519  N  N   350.0   339.775
1:03.550   22878  N  N   359.0   340.95
1:04.497   23219  N  N   341.0   341.125
1:05.392   23541  N  N   322.0   340.825
1:06.311   23872  N  N   331.0   340.525
1:07.322   24236  N  N   364.0   341.7
1:08.236   24565  N  N   329.0   341.575
1:09.214   24917  N  N   352.0   341.975
1:10.236   25285  N  N   368.0   342.925
1:11.275   25659  N  N   374.0   344.4
1:12.256   26012  N  N   353.0   345.3
1:13.261   26374  N  N   362.0   346.275
1:14.258   26733  N  N   359.0   347.35
1:15.192   27069  N  N   336.0   348.1
1:16.064   27383  N  N   314.0   347.15
1:16.969   27709  N  N   326.0   346.9
1:17.878   28036  N  N   327.0   347.3
1:18.764   28355  N  N   319.0   346.425
1:19.625   28665  N  N   310.0   344.625
1:20.517   28986  N  N   321.0   344.175
1:21.536   29353  N  N   367.0   343.825
1:22.425   29673  N  N   320.0   342.725
1:23.342   30003  N  N   330.0   342.125
1:24.314   30353  N  N   350.0   341.45
1:25.261   30694  N  N   341.0   340.575
1:26.194   31030  N  N   336.0   340.1
1:27.169   31381  N  N   351.0   339.85
1:28.239   31766  N  N   385.0   340.075
1:29.192   32109  N  N   343.0   339.775
1:30.142   32451  N  N   342.0   339.675
1:31.103   32797  N  N   346.0   339.525
1:32.069   33145  N  N   348.0   339.425
1:32.975   33471  N  N   326.0   339.725
1:33.919   33811  N  N   340.0   340.2
1:34.892   34161  N  N   350.0   340.55
1:35.861   34510  N  N   349.0   340.875
1:36.744   34828  N  N   318.0   341.325
1:37.769   35197  N  N   369.0   342.725
1:38.728   35542  N  N   345.0   342.75
1:39.628   35866  N  N   324.0   342.425
1:40.647   36233  N  N   367.0   342.85
1:41.689   36608  N  N   375.0   343.25
1:42.567   36924  N  N   316.0   342.625
1:43.475   37251  N  N   327.0   342.75
1:44.536   37633  N  N   382.0   344.025
1:45.583   38010  N  N   377.0   344.35
1:46.483   38334  N  N   324.0   344.225
1:47.506   38702  N  N   368.0   344.625
1:48.603   39097  N  N   395.0   345.3
1:49.542   39435  N  N   338.0   344.4
1:50.481   39773  N  N   338.0   344.025
1:51.489   40136  N  N   363.0   344.05
1:52.506   40502  N  N   366.0   344.225
1:53.394   40822  N  N   320.0   343.825
1:54.322   41156  N  N   334.0   344.325
1:55.317   41514  N  N   358.0   345.125
1:56.231   41843  N  N   329.0   345.175
1:57.072   42146  N  N   303.0   344.775
1:57.956   42464  N  N   318.0   344.975
1:58.911   42808  N  N   344.0   345.55
1:59.814   43133  N  N   325.0   344.5
2:00.700   43452  N  N   319.0   344.475
2:01.667   43800  N  N   348.0   344.925
2:02.653   44155  N  N   355.0   345.05
2:03.547   44477  N  N   322.0   344.575
2:04.503   44821  N  N   344.0   344.775
2:05.525   45189  N  N   368.0   345.2
2:06.456   45524  N  N   335.0   343.95
2:07.389   45860  N  N   336.0   343.775
2:08.456   46244  N  N   384.0   344.825
2:09.464   46607  N  N   363.0   345.25
2:10.344   46924  N  N   317.0   344.475
2:11.208   47235  N  N   311.0   344.1
2:12.125   47565  N  N   330.0   343.85
2:12.992   47877  N  N   312.0   342.9
2:13.867   48192  N  N   315.0   342.05
2:14.783   48522  N  N   330.0   342.35
2:15.722   48860  N  N   338.0   341.575
2:16.639   49190  N  N   330.0   341.2
2:17.606   49538  N  N   348.0   341.8
2:18.589   49892  N  N   354.0   341.475
2:19.508   50223  N  N   331.0   340.375
2:20.403   50545  N  N   322.0   340.525
2:21.431   50915  N  N   370.0   341.6
2:22.422   51272  N  N   357.0   340.975
2:23.333   51600  N  N   328.0   339.75
2:24.292   51945  N  N   345.0   340.275
2:25.317   52314  N  N   369.0   340.3
2:26.228   52642  N  N   328.0   338.625
2:27.092   52953  N  N   311.0   337.95
2:28.011   53284  N  N   331.0   337.775
2:28.922   53612  N  N   328.0   336.9
2:29.758   53913  N  N   301.0   335.275
2:30.619   54223  N  N   310.0   335.025
2:31.547   54557  N  N   334.0   335.025
2:32.458   54885  N  N   328.0   334.275
2:33.322   55196  N  N   311.0   333.825
2:34.239   55526  N  N   330.0   334.5
2:35.347   55925  N  A   399.0   334.5
2:36.331   56279  N  N   354.0   335.4
2:37.258   56613  N  N   334.0   335.15
2:38.286   56983  N  N   370.0   336.275
2:39.250   57330  N  N   347.0   336.975
2:40.106   57638  N  N   308.0   335.975
2:41.058   57981  N  N   343.0   335.675
2:42.167   58380  N  A   399.0   335.675
2:43.125   58725  N  N   345.0   336.25
2:44.072   59066  N  N   341.0   336.175
2:45.081   59429  N  N   363.0   336.05
2:46.061   59782  N  N   353.0   336.5
2:46.919   60091  N  N   309.0   335.825
2:47.858   60429  N  N   338.0   334.675
2:48.825   60777  N  N   348.0   334.3
2:49.789   61124  N  N   347.0   335.05
2:50.664   61439  N  N   315.0   335.15
2:51.592   61773  N  N   334.0   335.25
2:52.619   62143  N  N   370.0   336.7
2:53.544   62476  N  N   333.0   337.15
2:54.386   62779  N  N   303.0   336.475
2:55.369   63133  N  N   354.0   336.875
2:56.428   63514  N  N   381.0   338.15
2:57.350   63846  N  N   332.0   337.75
2:58.300   64188  N  N   342.0   337.45
2:59.350   64566  N  N   378.0   338.625
3:00.347   64925  N  N   359.0   339.55
3:01.217   65238  N  N   313.0   338.125
3:02.078   65548  N  N   310.0   336.95
3:02.953   65863  N  N   315.0   336.625
3:03.828   66178  N  N   315.0   335.875
3:04.656   66476  N  N   298.0   334.1
3:05.536   66793  N  N   317.0   333.825
3:06.497   67139  N  N   346.0   334.7
3:07.403   67465  N  N   326.0   334.575
3:08.333   67800  N  N   335.0   334.75
3:09.531   68231  N  A   431.0   334.75
3:10.561   68602  N  N   371.0   336.5
3:11.594   68974  N  N   372.0   338.05
3:12.653   69355  N  N   381.0   339.225
3:13.714   69737  N  N   382.0   340.575
3:14.708   70095  N  N   358.0   341.75
3:15.750   70470  N  N   375.0   342.875
3:16.778   70840  N  N   370.0   343.275
3:17.761   71194  N  N   354.0   343.775
3:18.800   71568  N  N   374.0   343.875
3:19.828   71938  N  N   370.0   344.45
3:20.853   72307  N  N   369.0   345.975
3:21.828   72658  N  N   351.0   346.175
3:22.822   73016  N  N   358.0   346.5
3:23.833   73380  N  N   364.0   347.075
3:24.792   73725  N  N   345.0   346.625
3:25.772   74078  N  N   353.0   346.625
3:26.764   74435  N  N   357.0   347.825
3:27.772   74798  N  N   363.0   348.45
3:28.700   75132  N  N   334.0   348.1
3:29.636   75469  N  N   337.0   347.85
3:30.647   75833  N  N   364.0   349.075
3:31.650   76194  N  N   361.0   349.75
3:32.572   76526  N  N   332.0   348.8
3:33.517   76866  N  N   340.0   348.975
3:34.539   77234  N  N   368.0   350.6
3:35.522   77588  N  N   354.0   350.6
3:36.419   77911  N  N   323.0   349.15
3:37.314   78233  N  N   322.0   348.9
3:38.231   78563  N  N   330.0   348.6
3:39.097   78875  N  N   312.0   346.95
3:39.975   79191  N  N   316.0   345.875
3:40.847   79505  N  N   314.0   345.9
3:41.747   79829  N  N   324.0   346.25
3:42.622   80144  N  N   315.0   346.25
3:43.572   80486  N  N   342.0   346.925
3:44.564   80843  N  N   357.0   348.4
3:45.544   81196  N  N   353.0   349.3
3:46.436   81517  N  N   321.0   348.675
3:47.369   81853  N  N   336.0   348.925
3:48.256   82172  N  N   319.0   348.525
3:49.103   82477  N  N   305.0   346.875
3:49.981   82793  N  N   316.0   345.475
3:50.861   83110  N  N   317.0   343.875
3:51.686   83407  N  N   297.0   341.75
3:52.517   83706  N  N   299.0   340.275
3:53.394   84022  N  N   316.0   338.8
3:54.228   84322  N  N   300.0   337.05
3:55.033   84612  N  N   290.0   335.45
3:55.869   84913  N  N   301.0   333.625
3:56.736   85225  N  N   312.0   332.175
3:57.589   85532  N  N   307.0   330.625
3:58.542   85875  N  N   343.0   330.425
3:59.539   86234  N  N   359.0   330.45
4:00.500   86580  N  N   346.0   330.0
4:01.547   86957  N  N   377.0   330.8
4:02.553   87319  N  N   362.0   331.025
4:03.483   87654  N  N   335.0   330.475
4:04.461   88006  N  N   352.0   330.2
4:05.367   88332  N  N   326.0   330.0
4:06.214   88637  N  N   305.0   329.2
4:07.044   88936  N  N   299.0   327.575
4:07.936   89257  N  N   321.0   326.575
4:08.928   89614  N  N   357.0   327.2
4:09.886   89959  N  N   345.0   327.325
4:10.847   90305  N  N   346.0   326.775
4:11.942   90699  N  A   394.0   326.775
4:13.056   91100  N  A   401.0   326.775
4:14.072   91466  N  N   366.0   327.075
4:15.097   91835  N  N   369.0   328.225
4:16.156   92216  N  A   381.0   328.225
4:17.142   92571  N  N   355.0   329.05
4:18.042   92895  N  N   324.0   328.9
4:19.053   93259  N  N   364.0   330.2
4:20.092   93633  N  N   374.0   331.65
4:21.036   93973  N  N   340.0   332.3
4:21.917   94290  N  N   317.0   332.125
4:22.922   94652  N  N   362.0   333.3
4:23.919   95011  N  N   359.0   333.725
4:24.808   95331  N  N   320.0   332.8
4:25.733   95664  N  N   333.0   332.3
4:26.697   96011  N  N   347.0   332.95
4:27.594   96334  N  N   323.0   332.625
4:28.442   96639  N  N   305.0   332.275
4:29.389   96980  N  N   341.0   333.175
4:30.414   97349  N  N   369.0   334.5
4:31.328   97678  N  N   329.0   334.8
4:32.328   98038  N  N   360.0   336.375
4:33.367   98412  N  N   374.0   338.25
4:34.244   98728  N  N   316.0   338.25
4:35.106   99038  N  N   310.0   338.5
4:36.036   99373  N  N   335.0   339.625
4:36.947   99701  N  N   328.0   340.3
4:37.803  100009  N  N   308.0   340.2
4:38.689  100328  N  N   319.0   340.5
4:39.619  100663  N  N   335.0   340.3
4:40.519  100987  N  N   324.0   339.425
4:41.492  101337  N  N   350.0   339.525
4:42.586  101731  N  A   394.0   339.525
4:43.572  102086  N  N   355.0   338.975
4:44.492  102417  N  N   331.0   338.2
4:45.486  102775  N  N   358.0   338.775
4:46.542  103155  N  N   380.0   339.475
4:47.500  103500  N  N   345.0   339.95
4:48.442  103839  N  N   339.0   340.8
4:49.436  104197  N  N   358.0   342.275
4:50.367  104532  N  N   335.0   342.625
4:51.247  104849  N  N   317.0   341.625
4:52.192  105189  N  N   340.0   341.5
4:53.258  105573  N  N   384.0   342.45
4:54.322  105956  N  N   383.0   342.875
4:55.294  106306  N  N   350.0   342.4
4:56.247  106649  N  N   343.0   342.1
4:57.186  106987  N  N   338.0   342.45
4:58.056  107300  N  N   313.0   341.175
4:58.936  107617  N  N   317.0   339.75
4:59.792  107925  N  N   308.0   338.95
5:00.725  108261  N  N   336.0   339.425
5:01.636  108589  N  N   328.0   338.575
5:02.558  108921  N  N   332.0   337.9
5:03.567  109284  N  N   363.0   338.975
5:04.594  109654  N  N   370.0   339.9
5:05.531  109991  N  N   337.0   339.65
5:06.539  110354  N  N   363.0   340.65
5:07.614  110741  N  N   387.0   342.7
5:08.642  111111  N  N   370.0   343.425
5:09.567  111444  N  N   333.0   342.525
5:10.553  111799  N  N   355.0   343.175
5:11.628  112186  N  N   387.0   343.85
5:12.600  112536  N  N   350.0   343.25
5:13.500  112860  N  N   324.0   343.45
5:14.444  113200  N  N   340.0   344.2
5:15.431  113555  N  N   355.0   344.7
5:16.339  113882  N  N   327.0   344.675
5:17.228  114202  N  N   320.0   344.975
5:18.175  114543  N  N   341.0   345.525
5:19.106  114878  N  N   335.0   345.525
5:19.994  115198  N  N   320.0   345.425
5:20.922  115532  N  N   334.0   345.025
5:21.867  115872  N  N   340.0   344.65
5:22.772  116198  N  N   326.0   344.525
5:23.683  116526  N  N   328.0   343.775
5:24.692  116889  N  N   363.0   343.35
5:25.725  117261  N  N   372.0   344.025
5:26.631  117587  N  N   326.0   343.7
5:27.572  117926  N  N   339.0   343.225
5:28.639  118310  N  N   384.0   344.45
5:29.547  118637  N  N   327.0   344.7
5:30.461  118966  N  N   329.0   344.425
5:31.411  119308  N  N   342.0   343.375
5:32.392  119661  N  N   353.0   342.625
5:33.283  119982  N  N   321.0   341.9
5:34.203  120313  N  N   331.0   341.6
5:35.167  120660  N  N   347.0   341.825
5:36.161  121018  N  N   358.0   342.95
5:37.039  121334  N  N   316.0   342.925
5:38.008  121683  N  N   349.0   343.95
5:39.000  122040  N  N   357.0   344.475
5:39.886  122359  N  N   319.0   344.25
5:40.739  122666  N  N   307.0   343.625
5:41.669  123001  N  N   335.0   342.925
5:42.650  123354  N  N   353.0   342.5
5:43.536  123673  N  N   319.0   342.05
5:44.431  123995  N  N   322.0   341.025
5:45.497  124379  N  N   384.0   340.95
5:46.539  124754  N  N   375.0   341.075
5:47.450  125082  N  N   328.0   340.95
5:48.397  125423  N  N   341.0   340.6
5:49.347  125765  N  N   342.0   339.475
5:50.267  126096  N  N   331.0   339.0
5:51.103  126397  N  N   301.0   338.425
5:52.033  126732  N  N   335.0   338.3
5:53.136  127129  N  A   397.0   338.3
5:54.086  127471  N  N   342.0   337.975
5:54.967  127788  N  N   317.0   337.725
5:55.931  128135  N  N   347.0   338.4
5:56.947  128501  N  N   366.0   339.025
5:57.819  128815  N  N   314.0   338.5
5:58.700  129132  N  N   317.0   338.425
5:59.667  129480  N  N   348.0   338.775
6:00.614  129821  N  N   341.0   338.8
6:01.467  130128  N  N   307.0   338.325
6:02.353  130447  N  N   319.0   338.1
6:03.311  130792  N  N   345.0   337.65
6:04.200  131112  N  N   320.0   336.35
6:05.039  131414  N  N   302.0   335.75
6:05.939  131738  N  N   324.0   335.375
6:06.894  132082  N  N   344.0   334.375
6:07.794  132406  N  N   324.0   334.3
6:08.647  132713  N  N   307.0   333.75
6:09.567  133044  N  N   331.0   333.475
6:10.606  133418  N  N   374.0   334.0
6:11.606  133778  N  N   360.0   334.975
6:12.514  134105  N  N   327.0   334.875
6:13.586  134491  N  A   386.0   334.875
6:14.611  134860  N  N   369.0   335.425
6:15.525  135189  N  N   329.0   334.7
6:16.469  135529  N  N   340.0   335.3
6:17.494  135898  N  N   369.0   335.8
6:18.408  136227  N  N   329.0   335.1
6:19.242  136527  N  N   300.0   334.625
6:20.153  136855  N  N   328.0   335.15
6:21.142  137211  N  N   356.0   335.675
6:22.022  137528  N  N   317.0   334.775
6:22.892  137841  N  N   313.0   334.625
6:23.892  138201  N  N   360.0   335.575
6:24.953  138583  N  N   382.0   335.525
6:25.869  138913  N  N   330.0   334.4
6:26.833  139260  N  N   347.0   334.875
6:27.944  139660  N  A   400.0   334.875
6:28.900  140004  N  N   344.0   334.95
6:29.769  140317  N  N   313.0   334.225
6:30.756  140672  N  N   355.0   334.825
6:31.822  141056  N  N   384.0   336.9
6:32.750  141390  N  N   334.0   336.875
6:33.594  141694  N  N   304.0   335.925
6:34.578  142048  N  N   354.0   336.85
6:35.600  142416  N  N   368.0   337.375
6:36.592  142773  N  N   357.0   337.15
6:37.531  143111  N  N   338.0   337.75
6:38.561  143482  N  N   371.0   339.1
6:39.667  143880  N  A   398.0   339.1
6:40.647  144233  N  N   353.0   339.225
6:41.542  144555  N  N   322.0   338.75
6:42.539  144914  N  N   359.0   340.05
6:43.500  145260  N  N   346.0   340.725
6:44.383  145578  N  N   318.0   340.05
6:45.242  145887  N  N   309.0   339.775
6:46.175  146223  N  N   336.0   340.625
6:47.133  146568  N  N   345.0   341.15
6:48.008  146883  N  N   315.0   340.425
6:48.906  147206  N  N   323.0   340.4
6:49.889  147560  N  N   354.0   341.575
6:50.939  147938  N  N   378.0   342.75
6:51.881  148277  N  N   339.0   341.875
6:52.917  148650  N  N   373.0   342.2
6:53.983  149034  N  N   384.0   343.625
6:54.906  149366  N  N   332.0   342.7
6:55.778  149680  N  N   314.0   342.325
6:56.675  150003  N  N   323.0   341.9
6:57.586  150331  N  N   328.0   340.875
6:58.436  150637  N  N   306.0   340.3
6:59.317  150954  N  N   317.0   340.725
7:00.242  151287  N  N   333.0   340.85
7:01.194  151630  N  N   343.0   340.525
7:02.050  151938  N  N   308.0   340.3
7:02.917  152250  N  N   312.0   340.275
7:03.842  152583  N  N   333.0   339.6
7:04.781  152921  N  N   338.0   338.5
7:05.625  153225  N  N   304.0   337.85
7:06.564  153563  N  N   338.0   337.625
7:07.600  153936  N  N   373.0   338.35
7:08.597  154295  N  N   359.0   339.5
7:09.517  154626  N  N   331.0   338.9
7:10.456  154964  N  N   338.0   337.75
7:11.381  155297  N  N   333.0   337.725
7:12.239  155606  N  N   309.0   337.85
7:13.075  155907  N  N   301.0   336.525
7:13.986  156235  N  N   328.0   335.525
7:14.972  156590  N  N   355.0   335.475
7:15.861  156910  N  N   320.0   335.025
7:16.708  157215  N  N   305.0   333.375
7:17.617  157542  N  N   327.0   332.725
7:18.478  157852  N  N   310.0   332.425
7:19.297  158147  N  N   295.0   330.825
7:20.133  158448  N  N   301.0   329.7
7:21.111  158800  N  N   352.0   330.55
7:22.083  159150  N  N   350.0   331.575
7:22.981  159473  N  N   323.0   331.25
7:24.069  159865  N  A   392.0   331.25
7:25.158  160257  N  A   392.0   331.25
7:26.078  160588  N  N   331.0   330.9
7:27.019  160927  N  N   339.0   331.5
7:28.014  161285  N  N   358.0   332.375
7:28.939  161618  N  N   333.0   331.85
7:29.817  161934  N  N   316.0   330.3
7:30.700  162252  N  N   318.0   329.775
7:31.636  162589  N  N   337.0   328.875
7:32.547  162917  N  N   328.0   327.475
7:33.383  163218  N  N   301.0   326.7
7:34.231  163523  N  N   305.0   326.475
7:35.158  163857  N  N   334.0   326.75
7:36.022  164168  N  N   311.0   326.325
7:36.889  164480  N  N   312.0   326.475
7:37.806  164810  N  N   330.0   326.8
7:38.842  165183  N  N   373.0   327.8
7:39.828  165538  N  N   355.0   328.1
7:40.703  165853  N  N   315.0   328.275
7:41.597  166175  N  N   322.0   328.525
7:42.522  166508  N  N   333.0   328.525
7:43.400  166824  N  N   316.0   327.975
7:44.244  167128  N  N   304.0   327.975
7:45.064  167423  N  N   295.0   326.9
7:45.869  167713  N  N   290.0   324.825
7:46.703  168013  N  N   300.0   323.35
7:47.558  168321  N  N   308.0   322.775
7:48.400  168624  N  N   303.0   321.9
7:49.258  168933  N  N   309.0   321.3
7:50.097  169235  N  N   302.0   321.125
7:51.328  169678  N  A   443.0   321.125
7:52.486  170095  N  A   417.0   321.125
7:53.500  170460  N  N   365.0   322.725
7:54.517  170826  N  N   366.0   323.675
7:55.556  171200  N  A   374.0   323.675
7:56.608  171579  N  A   379.0   323.675
7:57.606  171938  N  N   359.0   323.775
7:58.653  172315  N  A   377.0   323.775
7:59.692  172689  N  A   374.0   323.775
8:00.706  173054  N  N   365.0   324.9
8:01.694  173410  N  N   356.0   326.175
8:02.706  173774  N  N   364.0   327.1
8:03.694  174130  N  N   356.0   328.25
8:04.589  174452  N  N   322.0   328.925
8:05.525  174789  N  N   337.0   329.825
8:06.594  175174  N  A   385.0   329.825
8:07.572  175526  N  N   352.0   329.825
8:08.483  175854  N  N   328.0   329.275
8:09.508  176223  N  N   369.0   330.425
8:10.533  176592  N  N   369.0   331.375
8:11.436  176917  N  N   325.0   331.025
8:12.333  177240  N  N   323.0   330.15
8:13.306  177590  N  N   350.0   330.575
8:14.289  177944  N  N   354.0   331.525
8:15.250  178290  N  N   346.0   332.225
8:16.125  178605  N  N   315.0   331.675
8:17.103  178957  N  N   352.0   332.275
8:18.133  179328  N  N   371.0   334.025
8:19.186  179707  N  N   379.0   335.875
8:20.086  180031  N  N   324.0   335.625
8:20.983  180354  N  N   323.0   335.925
8:21.914  180689  N  N   335.0   336.5
8:22.850  181026  N  N   337.0   336.675
8:23.694  181330  N  N   304.0   334.95
8:24.569  181645  N  N   315.0   333.95
8:25.539  181994  N  N   349.0   334.8
8:26.528  182350  N  N   356.0   335.65
8:27.414  182669  N  N   319.0   335.3
8:28.347  183005  N  N   336.0   335.8
8:29.383  183378  N  N   373.0   337.525
8:30.369  183733  N  N   355.0   339.025
8:31.225  184041  N  N   308.0   339.475
8:32.175  184383  N  N   342.0   340.525
8:33.222  184760  N  N   377.0   342.25
8:34.156  185096  N  N   336.0   343.075
8:35.036  185413  N  N   317.0   343.275
8:35.967  185748  N  N   335.0   344.1
8:36.892  186081  N  N   333.0   343.3
8:37.742  186387  N  N   306.0   341.8
8:38.614  186701  N  N   314.0   340.675
8:39.525  187029  N  N   328.0   339.75
8:40.417  187350  N  N   321.0   338.875
8:41.281  187661  N  N   311.0   337.55
8:42.186  187987  N  N   326.0   336.8
8:43.156  188336  N  N   349.0   337.475
8:44.125  188685  N  N   349.0   337.775
8:45.019  189007  N  N   322.0   337.025
8:45.997  189359  N  N   352.0   337.625
8:47.117  189762  N  A   403.0   337.625
8:48.114  190121  N  N   359.0   337.375
8:49.089  190472  N  N   351.0   336.925
8:50.064  190823  N  N   351.0   337.575
8:51.019  191167  N  N   344.0   338.1
8:51.897  191483  N  N   316.0   337.25
8:52.831  191819  N  N   336.0   336.8
8:53.814  192173  N  N   354.0   337.0
8:54.739  192506  N  N   333.0   337.45
8:55.650  192834  N  N   328.0   336.85
8:56.567  193164  N  N   330.0   335.825
8:57.564  193523  N  N   359.0   335.325
8:58.514  193865  N  N   342.0   335.775
8:59.489  194216  N  N   351.0   336.475
9:00.478  194572  N  N   356.0   337.0
9:01.431  194915  N  N   343.0   337.15
9:02.336  195241  N  N   326.0   337.7
9:03.275  195579  N  N   338.0   338.275
9:04.200  195912  N  N   333.0   337.875
9:05.108  196239  N  N   327.0   337.15
9:05.986  196555  N  N   316.0   337.075
9:06.869  196873  N  N   318.0   336.625
9:07.800  197208  N  N   335.0   335.675
9:08.706  197534  N  N   326.0   334.95
9:09.578  197848  N  N   314.0   335.1
9:10.511  198184  N  N   336.0   334.95
9:11.475  198531  N  N   347.0   334.2
9:12.469  198889  N  N   358.0   334.75
9:13.372  199214  N  N   325.0   334.95
9:14.322  199556  N  N   342.0   335.125
9:15.342  199923  N  N   367.0   335.975
9:16.267  200256  N  N   333.0   336.65
9:17.161  200578  N  N   322.0   336.85
9:18.078  200908  N  N   330.0   336.9
9:18.953  201223  N  N   315.0   336.75
9:19.831  201539  N  N   316.0   336.875
9:20.761  201874  N  N   335.0   337.1
9:21.756  202232  N  N   358.0   337.325
9:22.692  202569  N  N   337.0   337.025
9:23.636  202909  N  N   340.0   337.475
9:24.686  203287  N  N   378.0   338.125
9:25.628  203626  N  A   339.0   338.125
9:26.511  203944  N  N   318.0   337.1
9:27.450  204282  N  N   338.0   336.775
9:28.411  204628  N  N   346.0   336.65
9:29.342  204963  N  N   335.0   336.425
9:30.239  205286  N  N   323.0   336.6
9:31.208  205635  N  N   349.0   336.925
9:32.183  205986  N  N   351.0   336.85
9:33.044  206296  N  N   310.0   336.275
9:33.958  206625  N  N   329.0   336.3
9:34.889  206960  N  N   335.0   336.425
9:35.775  207279  N  N   319.0   335.425
9:36.633  207588  N  N   309.0   334.6
9:37.550  207918  N  N   330.0   334.075
9:38.586  208291  N  N   373.0   334.5
9:39.497  208619  N  N   328.0   334.125
9:40.353  208927  N  N   308.0   333.675
9:41.386  209299  N  N   372.0   334.525
9:42.433  209676  N  N   377.0   335.625
9:43.344  210004  N  N   328.0   335.65
9:44.231  210323  N  N   319.0   335.725
9:45.208  210675  N  N   352.0   336.575
9:46.167  211020  N  N   345.0   336.825
9:47.036  211333  N  N   313.0   336.5
9:47.931  211655  N  N   322.0   336.7
9:48.861  211990  N  N   335.0   336.675
9:49.753  212311  N  N   321.0   336.025
9:50.589  212612  N  N   301.0   334.6
9:51.447  212921  N  N   309.0   334.2
9:52.378  213256  N  N   335.0   334.025
9:53.289  213584  N  N   328.0   333.05
9:54.117  213882  N  N   298.0   332.175
9:55.003  214201  N  N   319.0   332.1
9:55.972  214550  N  N   349.0   332.575
9:56.858  214869  N  N   319.0   332.675
9:57.692  215169  N  N   300.0   332.275
9:58.558  215481  N  N   312.0   331.7
9:59.467  215808  N  N   327.0   330.925
10:00.333  216120  N  N   312.0   330.3
10:01.161  216418  N  N   298.0   329.25
10:02.006  216722  N  N   304.0   327.4
10:03.028  217090  N  N   368.0   328.65
10:03.925  217413  N  N   323.0   328.275
10:04.761  217714  N  N   301.0   327.15
10:05.667  218040  N  N   326.0   326.925
10:06.592  218373  N  N   333.0   327.175
10:07.475  218691  N  N   318.0   326.4
10:08.303  218989  N  N   298.0   325.075
10:09.189  219308  N  N   319.0   325.3
10:10.197  219671  N  N   363.0   326.15
10:11.131  220007  N  N   336.0   326.175
10:11.975  220311  N  N   304.0   325.8
10:12.864  220631  N  N   320.0   326.075
10:13.825  220977  N  N   346.0   326.475
10:14.692  221289  N  N   312.0   324.95
10:15.528  221590  N  N   301.0   324.275
10:16.472  221930  N  N   340.0   325.075
10:17.483  222294  N  N   364.0   324.875
10:18.361  222610  N  N   316.0   323.35
10:19.197  222911  N  N   301.0   322.675
10:20.086  223231  N  N   320.0   322.7
10:21.150  223614  N  A   383.0   322.7
10:22.089  223952  N  N   338.0   322.35
10:23.056  224300  N  N   348.0   322.425
10:24.119  224683  N  A   383.0   322.425
10:25.089  225032  N  N   349.0   323.325
10:25.936  225337  N  N   305.0   322.9
10:26.897  225683  N  N   346.0   323.175
10:27.883  226038  N  N   355.0   324.025
10:28.794  226366  N  N   328.0   324.7
10:29.656  226676  N  N   310.0   324.725
10:30.558  227001  N  N   325.0   324.475
10:31.550  227358  N  N   357.0   325.2
10:32.436  227677  N  N   319.0   325.725
10:33.286  227983  N  N   306.0   325.4
10:34.175  228303  N  N   320.0   324.675
10:35.042  228615  N  N   312.0   324.5
10:35.894  228922  N  N   307.0   324.675
10:36.753  229231  N  N   309.0   324.6
10:37.681  229565  N  N   334.0   324.775
10:38.558  229881  N  N   316.0   324.875
10:39.433  230196  N  N   315.0   325.3
10:40.272  230498  N  N   302.0   325.25
10:41.086  230791  N  N   293.0   323.375
10:41.897  231083  N  N   292.0   322.6
10:42.803  231409  N  N   326.0   323.225
10:43.719  231739  N  N   330.0   323.325
10:44.556  232040  N  N   301.0   322.525
10:45.400  232344  N  N   304.0   322.175
10:46.336  232681  N  N   337.0   323.15
10:47.217  232998  N  N   317.0   323.1
10:48.056  233300  N  N   302.0   321.575
10:48.953  233623  N  N   323.0   321.25
10:49.925  233973  N  N   350.0   322.4
10:50.833  234300  N  N   327.0   322.575
10:51.678  234604  N  N   304.0   321.525
10:52.594  234934  N  N   330.0   321.975
10:53.617  235302  N  N   368.0   323.65
10:54.533  235632  N  N   330.0   323.4
10:55.383  235938  N  N   306.0   321.95
10:56.369  236293  N  N   355.0   322.925
10:57.394  236662  N  N   369.0   324.625
10:58.308  236991  N  N   329.0   324.85
10:59.167  237300  N  N   309.0   324.125
11:00.153  237655  N  N   355.0   324.3
11:01.114  238001  N  N   346.0   324.225
11:01.972  238310  N  N   309.0   324.325
11:02.867  238632  N  N   322.0   323.725
11:03.842  238983  N  N   351.0   323.625
11:04.781  239321  N  N   338.0   323.875
11:05.636  239629  N  N   308.0   323.825
11:06.536  239953  N  N   324.0   323.8
11:07.525  240309  N  N   356.0   323.775
11:08.414  240629  N  N   320.0   323.8
11:09.258  240933  N  N   304.0   323.75
11:10.169  241261  N  N   328.0   323.95
11:11.136  241609  N  N   348.0   324.85
11:12.039  241934  N  N   325.0   325.3
11:12.878  242236  N  N   302.0   325.125
11:13.747  242549  N  N   313.0   324.6
11:14.750  242910  N  N   361.0   325.725
11:15.653  243235  N  N   325.0   325.975
11:16.503  243541  N  N   306.0   326.075
11:17.428  243874  N  N   333.0   327.075
11:18.342  244203  N  N   329.0   328.0
11:19.203  244513  N  N   310.0   327.6
11:20.025  244809  N  N   296.0   326.75
11:20.903  245125  N  N   316.0   327.125
11:21.861  245470  N  N   345.0   328.15
11:22.733  245784  N  N   314.0   327.575
11:23.544  246076  N  N   292.0   326.95
11:24.431  246395  N  N   319.0   327.375
11:25.294  246706  N  N   311.0   327.075
11:26.158  247017  N  N   311.0   326.1
11:26.956  247304  N  N   287.0   325.1
11:27.822  247616  N  N   312.0   325.3
11:28.722  247940  N  N   324.0   325.15
11:29.575  248247  N  N   307.0   323.625
11:30.400  248544  N  N   297.0   322.8
11:31.292  248865  N  N   321.0   323.175
11:32.247  249209  N  N   344.0   322.9
11:33.133  249528  N  N   319.0   321.65
11:33.986  249835  N  N   307.0   321.1
11:34.936  250177  N  N   342.0   321.925
11:35.944  250540  N  N   363.0   322.125
11:36.842  250863  N  N   323.0   321.55
11:37.775  251199  N  N   336.0   322.225
11:38.719  251539  N  N   340.0   322.675
11:39.667  251880  N  N   341.0   322.425
11:40.547  252197  N  N   317.0   321.9
11:41.419  252511  N  N   314.0   322.05
11:42.406  252866  N  N   355.0   322.825
11:43.408  253227  N  N   361.0   322.95
11:44.283  253542  N  N   315.0   322.825
11:45.308  253911  N  N   369.0   324.45
11:46.367  254292  N  A   381.0   324.45
11:47.297  254627  N  N   335.0   324.625
11:48.183  254946  N  N   319.0   323.9
11:49.083  255270  N  N   324.0   323.875
11:50.069  255625  N  N   355.0   325.2
11:50.944  255940  N  N   315.0   325.25
11:51.869  256273  N  N   333.0   324.55
11:52.997  256679  N  A   406.0   324.55
11:54.069  257065  N  A   386.0   324.55
11:55.003  257401  N  N   336.0   324.825
11:55.950  257742  N  N   341.0   325.7
11:56.969  258109  N  N   367.0   326.55
11:57.856  258428  N  N   319.0   326.3
11:58.706  258734  N  N   306.0   326.2
11:59.578  259048  N  N   314.0   326.65
12:00.461  259366  N  N   318.0   326.7
12:01.331  259679  N  N   313.0   325.9
12:02.233  260004  N  N   325.0   326.175
12:03.153  260335  N  N   331.0   327.15
12:04.064  260663  N  N   328.0   327.375
12:04.969  260989  N  N   326.0   327.75
12:05.936  261337  N  N   348.0   328.675
12:07.028  261730  N  A   393.0   328.675
12:08.000  262080  N  N   350.0   330.25
12:08.933  262416  N  N   336.0   330.85
12:09.836  262741  N  N   325.0   330.875
12:10.708  263055  N  N   314.0   331.05
12:11.575  263367  N  N   312.0   331.425
12:12.453  263683  N  N   316.0   331.3
12:13.311  263992  N  N   309.0   330.425
12:14.183  264306  N  N   314.0   330.3
12:15.008  264603  N  N   297.0   330.05
12:15.875  264915  N  N   312.0   329.3
12:16.789  265244  N  N   329.0   328.45
12:17.675  265563  N  N   319.0   328.35
12:18.533  265872  N  N   309.0   327.675
12:19.408  266187  N  N   315.0   327.05
12:20.258  266493  N  N   306.0   326.175
12:21.078  266788  N  N   295.0   325.625
12:21.892  267081  N  N   293.0   325.1
12:22.783  267402  N  N   321.0   324.25
12:23.756  267752  N  N   350.0   323.975
12:24.628  268066  N  N   314.0   323.95
12:25.600  268416  N  N   350.0   323.475
12:26.786  268843  N  A   427.0   323.475
12:27.786  269203  N  N   360.0   324.1
12:28.761  269554  N  N   351.0   324.9
12:29.786  269923  N  N   369.0   326.025
12:30.769  270277  N  N   354.0   326.0
12:31.650  270594  N  N   317.0   326.05
12:32.578  270928  N  N   334.0   326.075
12:33.589  271292  N  N   364.0   326.775
12:34.511  271624  N  N   332.0   326.55
12:35.361  271930  N  N   306.0   325.025
12:36.319  272275  N  N   345.0   325.675
12:37.400  272664  N  A   389.0   325.675
12:38.375  273015  N  N   351.0   326.8
12:39.261  273334  N  N   319.0   326.925
12:40.231  273683  N  N   349.0   327.7
12:41.256  274052  N  N   369.0   329.1
12:42.183  274386  N  N   334.0   329.325
12:43.075  274707  N  N   321.0   329.075
12:44.022  275048  N  N   341.0   329.4
12:45.053  275419  N  N   371.0   330.525
12:45.961  275746  N  N   327.0   330.0
12:46.850  276066  N  N   320.0   329.25
12:47.817  276414  N  N   348.0   329.55
12:48.783  276762  N  N   348.0   330.125
12:49.644  277072  N  N   310.0   330.025
12:50.583  277410  N  N   338.0   330.675
12:51.586  277771  N  N   361.0   331.8
12:52.533  278112  N  N   341.0   332.6
12:53.408  278427  N  N   315.0   332.625
12:54.331  278759  N  N   332.0   333.5
12:55.297  279107  N  N   348.0   334.4
12:56.142  279411  N  N   304.0   333.775
12:56.956  279704  N  N   293.0   333.125
12:57.792  280005  N  N   301.0   332.925
12:58.672  280322  N  N   317.0   332.975
12:59.503  280621  N  N   299.0   332.8
13:00.308  280911  N  N   290.0   332.675
13:01.178  281224  N  N   313.0   333.175
13:02.108  281559  N  N   335.0   333.525
13:02.956  281864  N  N   305.0   332.4
13:03.758  282153  N  N   289.0   331.775
13:04.639  282470  N  N   317.0   330.95
13:05.569  282805  N  N   335.0   330.325
13:06.444  283120  N  N   315.0   329.425
13:07.272  283418  N  N   298.0   327.65
13:08.189  283748  N  N   330.0   327.05
13:09.239  284126  N  A   378.0   327.05
13:10.119  284443  N  N   317.0   327.05
13:11.028  284770  N  N   327.0   326.875
13:11.958  285105  N  N   335.0   326.15
13:12.853  285427  N  N   322.0   325.9
13:13.694  285730  N  N   303.0   325.825
13:14.561  286042  N  N   312.0   325.0
13:15.444  286360  N  N   318.0   324.175
13:16.325  286677  N  N   317.0   324.125
13:17.164  286979  N  N   302.0   322.95
13:18.000  287280  N  N   301.0   321.25
13:18.953  287623  N  N   343.0   321.475
13:19.847  287945  N  N   322.0   321.5
13:20.711  288256  N  N   311.0   320.75
13:21.597  288575  N  N   319.0   319.45
13:22.517  288906  N  N   331.0   319.55
13:23.417  289230  N  N   324.0   319.65
13:24.261  289534  N  N   304.0   318.55
13:25.272  289898  N  N   364.0   318.95
13:26.367  290292  N  A   394.0   318.95
13:27.358  290649  N  N   357.0   320.125
13:28.328  290998  N  N   349.0   320.4
13:29.303  291349  N  N   351.0   320.15
13:30.294  291706  N  N   357.0   320.55
13:31.172  292022  N  N   316.0   320.575
13:32.075  292347  N  N   325.0   320.4
13:33.058  292701  N  N   354.0   320.55
13:34.050  293058  N  N   357.0   321.875
13:34.967  293388  N  N   330.0   322.8
13:35.942  293739  N  N   351.0   324.05
13:37.003  294121  N  A   382.0   324.05
13:37.983  294474  N  N   353.0   324.95
13:38.869  294793  N  N   319.0   325.45
13:39.839  295142  N  N   349.0   326.925
13:40.819  295495  N  N   353.0   327.925
13:41.764  295835  N  N   340.0   328.05
13:42.622  296144  N  N   309.0   328.15
13:43.503  296461  N  N   317.0   328.85
13:44.481  296813  N  N   352.0   329.725
13:45.369  297133  N  N   320.0   329.35
13:46.206  297434  N  N   301.0   329.0
13:47.103  297757  N  N   323.0   329.625
13:48.083  298110  N  N   353.0   330.2
13:49.061  298462  N  N   352.0   331.075
13:49.933  298776  N  N   314.0   330.75
13:50.875  299115  N  N   339.0   330.85
13:51.850  299466  N  N   351.0   331.575
13:52.722  299780  N  N   314.0   331.85
13:53.578  300088  N  N   308.0   331.75
13:54.475  300411  N  N   323.0   331.875
13:55.400  300744  N  N   333.0   332.275
13:56.283  301062  N  N   318.0   332.675
13:57.161  301378  N  N   316.0   333.05
13:58.078  301708  N  N   330.0   332.725
13:59.036  302053  N  N   345.0   333.3
13:59.908  302367  N  N   314.0   333.375
14:00.811  302692  N  N   325.0   333.525
14:01.917  303090  N  A   398.0   333.525
14:02.969  303469  N  N   379.0   334.725
14:03.903  303805  N  N   336.0   335.025
14:04.825  304137  N  N   332.0   335.725
14:05.761  304474  N  N   337.0   335.05
14:06.686  304807  N  N   333.0   334.45
14:07.528  305110  N  N   303.0   333.3
14:08.478  305452  N  N   342.0   333.075
14:09.472  305810  N  N   358.0   333.1
14:10.442  306159  N  N   349.0   333.925
14:11.303  306469  N  N   310.0   333.55
14:12.197  306791  N  N   322.0   332.75
14:13.156  307136  N  N   345.0   332.45
14:14.142  307491  N  N   355.0   333.075
14:15.000  307800  N  N   309.0   332.025
14:15.900  308124  N  N   324.0   331.3
14:16.828  308458  N  N   334.0   331.675
14:17.775  308799  N  N   341.0   331.475
14:18.633  309108  N  N   309.0   330.375
14:19.494  309418  N  N   310.0   329.625
14:20.450  309762  N  N   344.0   330.5
14:21.358  310089  N  N   327.0   330.75
14:22.186  310387  N  N   298.0   329.4
14:23.083  310710  N  N   323.0   329.475
14:24.008  311043  N  N   333.0   330.275
14:24.908  311367  N  N   324.0   330.3
14:25.747  311669  N  N   302.0   329.025
14:26.583  311970  N  N   301.0   327.75
14:27.444  312280  N  N   310.0   327.65
14:28.322  312596  N  N   316.0   327.075
14:29.131  312887  N  N   291.0   325.575
14:29.964  313187  N  N   300.0   325.225
14:30.869  313513  N  N   326.0   325.675
14:31.850  313866  N  N   353.0   326.425
14:32.731  314183  N  N   317.0   326.025
14:33.731  314543  N  N   360.0   327.075
14:34.978  314992  N  A   449.0   327.075
14:36.003  315361  N  N   369.0   328.4
14:37.053  315739  N  A   378.0   328.4
14:38.114  316121  N  A   382.0   328.4
14:39.164  316499  N  A   378.0   328.4
14:40.131  316847  N  N   348.0   328.85
14:41.125  317205  N  N   358.0   329.175
14:42.161  317578  N  N   373.0   330.65
14:43.103  317917  N  N   339.0   331.0
14:44.019  318247  N  N   330.0   329.775
14:44.989  318596  N  N   349.0   330.1
14:45.958  318945  N  N   349.0   330.525
14:46.833  319260  N  N   315.0   329.975
14:47.725  319581  N  N   321.0   329.675
14:48.733  319944  N  N   363.0   331.175
14:49.706  320294  N  N   350.0   331.375
14:50.583  320610  N  N   316.0   330.325
14:51.575  320967  N  N   357.0   330.525
14:52.619  321343  N  N   376.0   332.175
14:53.592  321693  N  N   350.0   332.875
14:54.453  322003  N  N   310.0   332.0
14:55.400  322344  N  N   341.0   331.65
14:56.486  322735  N  A   391.0   331.65
14:57.422  323072  N  N   337.0   332.35
14:58.331  323399  N  N   327.0   332.425
14:59.344  323764  N  N   365.0   333.2
15:00.333  324120  N  N   356.0   333.575
15:01.217  324438  N  N   318.0   333.8
15:02.044  324736  N  N   298.0   333.5
15:02.989  325076  N  N   340.0   333.4
15:03.922  325412  N  N   336.0   333.625
15:04.761  325714  N  N   302.0   333.725
15:05.594  326014  N  N   300.0   333.15
15:06.442  326319  N  N   305.0   332.45
15:07.300  326628  N  N   309.0   332.075
15:08.125  326925  N  N   297.0   331.95
15:08.939  327218  N  N   293.0   331.75
15:09.828  327538  N  N   320.0   332.0
15:10.911  327928  N  A   390.0   332.0
15:11.828  328258  N  N   330.0   332.35
15:12.872  328634  N  N   376.0   334.475
15:13.997  329039  N  A   405.0   334.475
15:15.022  329408  N  N   369.0   336.2
15:15.917  329730  N  N   322.0   336.1
15:16.872  330074  N  N   344.0   335.875
15:17.939  330458  N  N   384.0   337.55
15:18.817  330774  N  N   316.0   336.45
15:19.689  331088  N  N   314.0   335.075
15:20.617  331422  N  N   334.0   334.725
15:21.542  331755  N  N   333.0   334.1
15:22.394  332062  N  N   307.0   332.45
15:23.314  332393  N  N   331.0   332.25
15:24.278  332740  N  N   347.0   332.675
15:25.217  333078  N  N   338.0   332.4
15:26.072  333386  N  N   308.0   331.375
15:26.964  333707  N  N   321.0   331.525
15:27.872  334034  N  N   327.0   331.675
15:28.767  334356  N  N   322.0   330.65
15:29.639  334670  N  N   314.0   329.75
15:30.561  335002  N  N   332.0   330.15
15:31.642  335391  N  A   389.0   330.15
15:32.581  335729  N  N   338.0   329.675
15:33.458  336045  N  N   316.0   328.175
15:34.375  336375  N  N   330.0   327.675
15:35.306  336710  N  N   335.0   328.3
15:36.194  337030  N  N   320.0   327.775
15:37.050  337338  N  N   308.0   327.05
15:38.019  337687  N  N   349.0   327.6
15:39.028  338050  N  N   363.0   327.55
15:39.919  338371  N  N   321.0   326.675
15:40.775  338679  N  N   308.0   326.425
15:41.731  339023  N  N   344.0   327.575
15:42.717  339378  N  N   355.0   327.95
15:43.628  339706  N  N   328.0   327.75
15:44.492  340017  N  N   311.0   327.975
15:45.503  340381  N  N   364.0   329.575
15:46.592  340773  N  A   392.0   329.575
15:47.497  341099  N  N   326.0   330.1
15:48.364  341411  N  N   312.0   330.175
15:49.253  341731  N  N   320.0   330.75
15:50.114  342041  N  N   310.0   331.175
15:50.981  342353  N  N   312.0   330.975
15:51.856  342668  N  N   315.0   330.6
15:52.850  343026  N  N   358.0   330.15
15:53.839  343382  N  N   356.0   329.825
15:54.703  343693  N  N   311.0   329.55
15:55.675  344043  N  N   350.0   329.7
15:56.833  344460  N  A   417.0   329.7
15:57.833  344820  N  N   360.0   329.1
15:58.767  345156  N  N   336.0   329.6
15:59.808  345531  N  N   375.0   331.125
16:00.861  345910  N  N   379.0   332.25
16:01.753  346231  N  N   321.0   331.95
16:02.650  346554  N  N   323.0   332.35
16:03.567  346884  N  N   330.0   332.325
16:04.519  347227  N  N   343.0   332.225
16:05.394  347542  N  N   315.0   331.65
16:06.311  347872  N  N   330.0   332.2
16:07.272  348218  N  N   346.0   332.825
16:08.258  348573  N  N   355.0   333.525
16:09.133  348888  N  N   315.0   333.35
16:10.036  349213  N  N   325.0   333.625
16:11.097  349595  N  N   382.0   334.875
16:12.164  349979  N  N   384.0   336.025
16:13.064  350303  N  N   324.0   336.225
16:13.975  350631  N  N   328.0   336.175
16:14.906  350966  N  N   335.0   336.175
16:15.775  351279  N  N   313.0   336.0
16:16.583  351570  N  N   291.0   335.575
16:17.478  351892  N  N   322.0   334.9
16:18.386  352219  N  N   327.0   334.0
16:19.267  352536  N  N   317.0   333.9
16:20.081  352829  N  N   293.0   333.525
16:20.967  353148  N  N   319.0   332.9
16:21.894  353482  N  N   334.0   332.375
16:22.808  353811  N  N   329.0   332.4
16:23.644  354112  N  N   301.0   332.15
16:24.556  354440  N  N   328.0   331.25
16:25.542  354795  N  N   355.0   331.975
16:26.522  355148  N  N   353.0   333.0
16:27.381  355457  N  N   309.0   332.725
16:28.303  355789  N  N   332.0   333.275
16:29.278  356140  N  N   351.0   334.25
16:30.136  356449  N  N   309.0   334.1
16:30.950  356742  N  N   293.0   332.475
16:31.800  357048  N  N   306.0   331.225
16:32.656  357356  N  N   308.0   331.15
16:33.506  357662  N  N   306.0   330.05
16:34.314  357953  N  N   291.0   328.325
16:35.139  358250  N  N   297.0   327.35
16:35.975  358551  N  N   301.0   325.5
16:36.817  358854  N  N   303.0   323.6
16:37.625  359145  N  N   291.0   322.85
16:38.456  359444  N  N   299.0   322.25
16:39.339  359762  N  N   318.0   321.95
16:40.236  360085  N  N   323.0   321.45
16:41.086  360391  N  N   306.0   321.225
16:41.967  360708  N  N   317.0   320.9
16:42.900  361044  N  N   336.0   320.65
16:43.828  361378  N  N   334.0   320.125
16:44.697  361691  N  N   313.0   320.075
16:45.636  362029  N  N   338.0   320.4
16:46.772  362438  N  A   409.0   320.4
16:47.756  362792  N  N   354.0   319.7
16:48.694  363130  N  N   338.0   318.55
16:49.661  363478  N  N   348.0   319.15
16:50.581  363809  N  N   331.0   319.225
16:51.419  364111  N  N   302.0   318.4
16:52.317  364434  N  N   323.0   318.65
16:53.306  364790  N  N   356.0   320.275
16:54.183  365106  N  N   316.0   320.125
16:55.056  365420  N  N   314.0   319.8
16:55.950  365742  N  N   322.0   319.925
16:56.897  366083  N  N   341.0   321.125
16:57.786  366403  N  N   320.0   321.15
16:58.636  366709  N  N   306.0   320.45
16:59.522  367028  N  N   319.0   320.2
17:00.458  367365  N  N   337.0   321.1
17:01.339  367682  N  N   317.0   320.825
17:02.189  367988  N  N   306.0   319.6
17:03.058  368301  N  N   313.0   318.6
17:03.969  368629  N  N   328.0   319.075
17:04.925  368973  N  N   344.0   319.375
17:05.794  369286  N  N   313.0   318.425
17:06.672  369602  N  N   316.0   318.6
17:07.575  369927  N  N   325.0   319.4
17:08.464  370247  N  N   320.0   319.75
17:09.317  370554  N  N   307.0   319.725
17:10.200  370872  N  N   318.0   320.025
17:11.100  371196  N  N   324.0   320.85
17:12.011  371524  N  N   328.0   321.625
17:12.872  371834  N  N   310.0   321.85
17:13.858  372189  N  N   355.0   323.15
17:14.811  372532  N  N   343.0   324.45
17:15.736  372865  N  N   333.0   325.3
17:16.625  373185  N  N   320.0   325.35
17:17.525  373509  N  N   324.0   325.375
17:18.433  373836  N  N   327.0   325.9
17:19.394  374182  N  N   346.0   326.625
17:20.253  374491  N  N   309.0   325.95
17:21.153  374815  N  N   324.0   325.7
17:22.119  375163  N  N   348.0   326.575
17:23.197  375551  N  A   388.0   326.575
17:24.153  375895  N  N   344.0   326.725
17:25.147  376253  N  N   358.0   326.825
17:26.203  376633  N  A   380.0   326.825
17:27.131  376967  N  N   334.0   326.725
17:27.978  377272  N  N   305.0   325.65
17:28.864  377591  N  N   319.0   325.35
17:29.819  377935  N  N   344.0   326.4
17:30.758  378273  N  N   338.0   326.775
17:31.631  378587  N  N   314.0   325.725
17:32.481  378893  N  N   306.0   325.475
17:33.356  379208  N  N   315.0   325.5
17:34.214  379517  N  N   309.0   325.175
17:35.033  379812  N  N   295.0   324.025
17:35.892  380121  N  N   309.0   323.75
17:36.767  380436  N  N   315.0   323.975
17:37.631  380747  N  N   311.0   323.775
17:38.461  381046  N  N   299.0   322.825
17:39.331  381359  N  N   313.0   322.725
17:40.267  381696  N  N   337.0   323.5
17:41.183  382026  N  N   330.0   323.925
17:42.017  382326  N  N   300.0   323.225
17:42.869  382633  N  N   307.0   322.3
17:43.767  382956  N  N   323.0   322.55
17:44.633  383268  N  N   312.0   322.45
17:45.467  383568  N  N   300.0   321.825
17:46.319  383875  N  N   307.0   321.5
17:47.158  384177  N  N   302.0   321.375
17:47.992  384477  N  N   300.0   320.925
17:48.822  384776  N  N   299.0   320.3
17:49.622  385064  N  N   288.0   319.3
17:50.486  385375  N  N   311.0   319.325
17:51.306  385670  N  N   295.0   317.825
17:52.206  385994  N  N   324.0   317.35
17:53.122  386324  N  N   330.0   317.275
17:54.106  386678  N  N   354.0   318.125
17:55.078  387028  N  N   350.0   318.775
17:56.106  387398  N  A   370.0   318.775
17:57.317  387834  N  A   436.0   318.775
17:58.319  388195  N  N   361.0   319.625
17:59.231  388523  N  N   328.0   319.175
18:00.100  388836  N  N   313.0   319.275
18:00.936  389137  N  N   301.0   318.7
18:01.792  389445  N  N   308.0   317.7
18:02.658  389757  N  N   312.0   316.9
18:03.528  390070  N  N   313.0   315.775
18:04.422  390392  N  N   322.0   315.475
18:05.281  390701  N  N   309.0   315.575
18:06.258  391053  N  N   352.0   316.4
18:07.497  391499  N  A   446.0   316.4
18:08.553  391879  N  A   380.0   316.4
18:09.697  392291  N  A   412.0   316.4
18:10.794  392686  N  A   395.0   316.4
18:11.833  393060  N  A   374.0   316.4
18:12.867  393432  N  A   372.0   316.4
18:13.881  393797  N  A   365.0   316.4
18:14.792  394125  N  N   328.0   316.0
18:15.675  394443  N  N   318.0   315.5
18:16.564  394763  N  N   320.0   315.65
18:17.411  395068  N  N   305.0   315.625
18:18.250  395370  N  N   302.0   315.3
18:19.153  395695  N  N   325.0   315.7
18:20.089  396032  N  N   337.0   316.75
18:20.997  396359  N  N   327.0   317.2
18:22.017  396726  N  A   367.0   317.2
18:23.114  397121  N  A   395.0   317.2
18:24.056  397460  N  N   339.0   317.8
18:25.003  397801  N  N   341.0   318.55
18:26.100  398196  N  A   395.0   318.55
18:27.050  398538  N  N   342.0   319.625
18:27.967  398868  N  N   330.0   320.05
18:28.886  399199  N  N   331.0   319.9
18:29.808  399531  N  N   332.0   319.95
18:30.697  399851  N  N   320.0   320.45
18:31.611  400180  N  N   329.0   321.0
18:32.536  400513  N  N   333.0   321.25
18:33.428  400834  N  N   321.0   321.475
18:34.289  401144  N  N   310.0   321.725
18:35.272  401498  N  N   354.0   322.9
18:36.228  401842  N  N   344.0   323.95
18:37.139  402170  N  N   328.0   324.65
18:38.039  402494  N  N   324.0   325.275
18:39.022  402848  N  N   354.0   326.925
18:40.078  403228  N  A   380.0   326.925
18:41.000  403560  N  N   332.0   327.45
18:41.950  403902  N  N   342.0   328.625
18:42.892  404241  N  N   339.0   329.0
18:43.767  404556  N  N   315.0   328.625
18:44.644  404872  N  N   316.0   327.675
18:45.633  405228  N  N   356.0   327.825
18:46.703  405613  N  A   385.0   327.825
18:47.747  405989  N  N   376.0   328.2
18:48.664  406319  N  N   330.0   328.25
18:49.625  406665  N  N   346.0   329.075
18:50.619  407023  N  N   358.0   330.5
18:51.525  407349  N  N   326.0   330.95
18:52.408  407667  N  N   318.0   331.1
18:53.292  407985  N  N   318.0   331.225
18:54.219  408319  N  N   334.0   331.525
18:55.089  408632  N  N   313.0   331.625
18:55.969  408949  N  N   317.0   330.75
18:56.944  409300  N  N   351.0   331.325
18:57.911  409648  N  N   348.0   332.075
18:58.781  409961  N  N   313.0   331.9
18:59.694  410290  N  N   329.0   332.5
19:00.594  410614  N  N   324.0   333.05
19:01.506  410942  N  N   328.0   333.125
19:02.336  411241  N  N   299.0   332.175
19:03.197  411551  N  N   310.0   331.75
19:04.056  411860  N  N   309.0   331.0
19:04.953  412183  N  N   323.0   330.55
19:05.825  412497  N  N   314.0   329.85
19:06.703  412813  N  N   316.0   329.5
19:07.628  413146  N  N   333.0   329.55
19:08.544  413476  N  N   330.0   329.5
19:09.425  413793  N  N   317.0   329.425
19:10.333  414120  N  N   327.0   329.375
19:11.244  414448  N  N   328.0   329.25
19:12.108  414759  N  N   311.0   329.0
19:12.956  415064  N  N   305.0   328.875
19:13.883  415398  N  N   334.0   328.375
19:14.836  415741  N  N   343.0   328.35
19:15.681  416045  N  N   304.0   327.75
19:16.514  416345  N  N   300.0   327.15
19:17.347  416645  N  N   300.0   325.8
19:18.269  416977  N  N   332.0   325.8
19:19.106  417278  N  N   301.0   324.775
19:19.917  417570  N  N   292.0   323.6
19:20.783  417882  N  N   312.0   323.525
19:21.606  418178  N  N   296.0   323.025
19:22.386  418459  N  N   281.0   321.15
19:23.203  418753  N  N   294.0   319.1
19:23.992  419037  N  N   284.0   317.95
19:24.833  419340  N  N   303.0   316.875
19:25.631  419627  N  N   287.0   315.1
19:26.425  419913  N  N   286.0   314.1
19:27.281  420221  N  N   308.0   313.85
19:28.139  420530  N  N   309.0   313.625
19:28.975  420831  N  N   301.0   312.8
19:29.819  421135  N  N   304.0   312.575
19:30.775  421479  N  N   344.0   313.25
19:31.694  421810  N  N   331.0   312.75
19:32.567  422124  N  N   314.0   311.9
19:33.442  422439  N  N   315.0   311.95
19:34.333  422760  N  N   321.0   311.75
19:35.211  423076  N  N   316.0   311.55
19:36.069  423385  N  N   309.0   311.075
19:36.944  423700  N  N   315.0   311.475
19:37.897  424043  N  N   343.0   312.3
19:38.786  424363  N  N   320.0   312.575
19:39.703  424693  N  N   330.0   312.75
19:40.636  425029  N  N   336.0   313.3
19:41.628  425386  N  N   357.0   314.325
19:42.494  425698  N  N   312.0   313.8
19:43.356  426008  N  N   310.0   313.3
19:44.261  426334  N  N   326.0   313.525
19:45.111  426640  N  N   306.0   313.0
19:45.997  426959  N  N   319.0   312.775
19:47.033  427332  N  A   373.0   312.775
19:47.958  427665  N  N   333.0   313.325
19:48.919  428011  N  N   346.0   314.35
19:50.033  428412  N  A   401.0   314.35
19:51.047  428777  N  A   365.0   314.35
19:51.961  429106  N  N   329.0   314.225
19:52.942  429459  N  N   353.0   314.475
19:53.989  429836  N  A   377.0   314.475
19:54.906  430166  N  N   330.0   315.125
19:55.767  430476  N  N   310.0   315.375
19:56.647  430793  N  N   317.0   315.8
19:57.531  431111  N  N   318.0   315.45
19:58.358  431409  N  N   298.0   315.375
19:59.178  431704  N  N   295.0   315.45
20:00.053  432019  N  N   315.0   315.525
20:00.989  432356  N  N   337.0   316.55
20:01.856  432668  N  N   312.0   317.325
20:02.714  432977  N  N   309.0   317.7
20:03.642  433311  N  N   334.0   318.95
20:04.581  433649  N  N   338.0   319.825
20:05.417  433950  N  N   301.0   320.175
20:06.269  434257  N  N   307.0   320.7
20:07.133  434568  N  N   311.0   320.775
20:07.992  434877  N  N   309.0   320.775
20:08.811  435172  N  N   295.0   320.625
20:09.669  435481  N  N   309.0   320.75
20:10.681  435845  N  N   364.0   321.25
20:11.647  436193  N  N   348.0   321.675
20:12.528  436510  N  N   317.0   321.75
20:13.494  436858  N  N   348.0   322.575
20:14.511  437224  N  N   366.0   323.7
20:15.417  437550  N  N   326.0   323.95
20:16.258  437853  N  N   303.0   323.8
20:17.156  438176  N  N   323.0   324.0
20:18.100  438516  N  N   340.0   323.925
20:18.950  438822  N  N   306.0   323.575
20:19.772  439118  N  N   296.0   322.725
20:20.678  439444  N  N   326.0   322.475
20:21.656  439796  N  N   352.0   322.35
20:22.564  440123  N  N   327.0   322.725
20:23.422  440432  N  N   309.0   322.7
20:24.447  440801  N  N   369.0   323.775
20:25.603  441217  N  A   416.0   323.775
20:26.572  441566  N  N   349.0   324.85
20:27.472  441890  N  N   324.0   324.975
20:28.375  442215  N  N   325.0   324.775
20:29.278  442540  N  N   325.0   324.25
20:30.144  442852  N  N   312.0   323.825
20:30.964  443147  N  N   295.0   322.375
20:31.872  443474  N  N   327.0   322.3
20:32.839  443822  N  N   348.0   323.25
20:33.803  444169  N  N   347.0   324.0
20:34.683  444486  N  N   317.0   323.975
20:35.678  444844  N  N   358.0   325.475
20:36.783  445242  N  A   398.0   325.475
20:37.717  445578  N  N   336.0   326.5
20:38.642  445911  N  N   333.0   326.95
20:39.578  446248  N  N   337.0   326.95
20:40.519  446587  N  N   339.0   327.625
20:41.344  446884  N  N   297.0   327.325
20:42.164  447179  N  N   295.0   326.35
20:42.972  447470  N  N   291.0   325.175
20:43.767  447756  N  N   286.0   324.8
20:44.558  448041  N  N   285.0   324.25
20:45.322  448316  N  A   275.0   324.25
20:46.153  448615  N  N   299.0   323.95
20:47.039  448934  N  N   319.0   324.2
20:47.883  449238  N  N   304.0   324.425
20:48.808  449571  N  N   333.0   325.025
20:49.914  449969  N  A   398.0   325.025
20:50.967  450348  N  A   379.0   325.025
20:51.914  450689  N  N   341.0   324.45
20:53.000  451080  N  A   391.0   324.45
20:54.111  451480  N  A   400.0   324.45
20:55.081  451829  N  N   349.0   324.475
20:56.075  452187  N  N   358.0   325.5
20:57.092  452553  N  N   366.0   325.95
20:57.994  452878  N  N   325.0   324.925
20:58.831  453179  N  N   301.0   324.3
20:59.667  453480  N  N   301.0   324.25
21:00.589  453812  N  N   332.0   324.475
21:01.414  454109  N  N   297.0   323.4
21:02.239  454406  N  N   297.0   323.175
21:03.092  454713  N  N   307.0   323.45
21:04.000  455040  N  N   327.0   323.475
21:04.844  455344  N  N   304.0   322.275
21:05.658  455637  N  N   293.0   321.425
21:06.472  455930  N  N   293.0   321.025
21:07.392  456261  N  N   331.0   320.075
21:08.233  456564  N  N   303.0   318.925
21:09.044  456856  N  N   292.0   318.125
21:09.875  457155  N  N   299.0   317.475
21:10.742  457467  N  N   312.0   317.15
21:11.636  457789  N  N   322.0   317.4
21:12.478  458092  N  N   303.0   317.6
21:13.347  458405  N  N   313.0   317.25
21:14.283  458742  N  N   337.0   316.975
21:15.178  459064  N  N   322.0   316.35
21:15.994  459358  N  N   294.0   315.775
21:16.794  459646  N  N   288.0   314.025
21:17.608  459939  N  N   293.0   312.95
21:18.417  460230  N  N   291.0   311.9
21:19.244  460528  N  N   298.0   310.925
21:20.058  460821  N  N   293.0   309.775
21:20.867  461112  N  N   291.0   309.625
21:21.714  461417  N  N   305.0   309.875
21:22.550  461718  N  N   301.0   310.125
21:23.419  462031  N  N   313.0   310.8
21:24.269  462337  N  N   306.0   311.325
21:25.108  462639  N  N   302.0   311.4
21:25.967  462948  N  N   309.0   311.15
21:26.822  463256  N  N   308.0   311.25
21:27.697  463571  N  N   315.0   310.8
21:28.547  463877  N  N   306.0   309.925
21:28.947  464021  ~  A   144.0   309.925
21:29.369  464173  N  A   152.0   309.925
21:30.175  464463  N  N   290.0   308.45
21:30.953  464743  N  N   280.0   306.5
21:31.719  465019  N  N   276.0   304.25
21:32.497  465299  N  N   280.0   303.125
21:33.275  465579  N  N   280.0   302.6
21:34.028  465850  N  N   271.0   301.85
21:34.764  466115  N  N   265.0   300.175
21:35.522  466388  N  N   273.0   299.575
21:36.281  466661  N  N   273.0   298.975
21:37.014  466925  N  N   264.0   297.9
21:37.736  467185  N  N   260.0   296.225
21:38.203  467353  ~  A   168.0   296.225
21:38.467  467448  N  A   95.0   296.225
21:39.203  467713  N  N   265.0   295.25
21:39.953  467983  N  N   270.0   294.675
21:40.719  468259  N  N   276.0   294.25
21:41.450  468522  N  N   263.0   292.55
21:42.186  468787  N  N   265.0   291.6
21:42.947  469061  N  N   274.0   291.15
21:43.692  469329  N  N   268.0   290.375
21:44.439  469598  N  N   269.0   289.3
21:45.175  469863  N  N   265.0   287.875
21:45.942  470139  N  N   276.0   287.2
21:46.719  470419  N  N   280.0   286.375
21:47.503  470701  N  N   282.0   285.0
21:48.264  470975  N  N   274.0   283.8
21:49.089  471272  N  N   297.0   283.875
21:50.067  471624  N  A   352.0   283.875
21:51.150  472014  N  A   390.0   283.875
21:52.253  472411  N  A   397.0   283.875
21:53.300  472788  N  A   377.0   283.875
21:54.356  473168  N  A   380.0   283.875
21:55.300  473508  N  A   340.0   283.875
21:56.247  473849  N  A   341.0   283.875
21:57.250  474210  N  A   361.0   283.875
21:58.197  474551  N  A   341.0   283.875
21:59.100  474876  N  N   325.0   284.8
21:59.942  475179  N  N   303.0   285.05
22:00.808  475491  N  N   312.0   285.575
22:01.708  475815  N  N   324.0   286.225
22:02.636  476149  N  A   334.0   286.225
22:03.481  476453  N  N   304.0   286.5
22:04.386  476779  N  N   326.0   287.375
22:05.347  477125  N  A   346.0   287.375
22:06.239  477446  N  N   321.0   287.775
22:07.083  477750  N  N   304.0   287.85
22:07.925  478053  N  N   303.0   287.6
22:08.822  478376  N  N   323.0   288.025
22:09.694  478690  N  N   314.0   288.325
22:10.481  478973  N  N   283.0   287.675
22:11.286  479263  N  N   290.0   287.225
22:12.119  479563  N  N   300.0   286.85
22:12.939  479858  N  N   295.0   286.575
22:13.725  480141  N  N   283.0   286.4
22:14.561  480442  N  N   301.0   286.925
22:15.422  480752  N  N   310.0   287.775
22:16.239  481046  N  N   294.0   288.125
22:17.081  481349  N  N   303.0   288.7
22:17.956  481664  N  N   315.0   289.8
22:18.850  481986  N  N   322.0   291.225
22:19.708  482295  N  N   309.0   292.125
22:20.747  482669  N  A   374.0   292.125
22:21.850  483066  N  A   397.0   292.125
22:22.800  483408  N  A   342.0   292.125
22:23.778  483760  N  A   352.0   292.125
22:24.814  484133  N  A   373.0   292.125
22:25.844  484504  N  A   371.0   292.125
22:26.758  484833  N  N   329.0   293.525
22:27.631  485147  N  N   314.0   294.775
22:28.503  485461  N  N   314.0   296.125
22:29.442  485799  N  N   338.0   297.95
22:30.331  486119  N  N   320.0   299.2
22:31.178  486424  N  N   305.0   299.925
22:32.042  486735  N  N   311.0   301.125
22:32.964  487067  N  N   332.0   302.8
22:33.881  487397  N  N   330.0   304.2
22:34.756  487712  N  N   315.0   305.375
22:35.714  488057  N  N   345.0   307.275
22:36.753  488431  N  A   374.0   307.275
22:37.683  488766  N  N   335.0   309.025
22:38.561  489082  N  N   316.0   310.025
22:39.403  489385  N  N   303.0   310.6
22:40.272  489698  N  N   313.0   311.375
22:41.103  489997  N  N   299.0   312.0
22:41.964  490307  N  N   310.0   312.325
22:42.906  490646  N  N   339.0   312.675
22:43.792  490965  N  N   319.0   313.075
22:44.658  491277  N  N   312.0   313.075
22:45.575  491607  N  N   330.0   313.225
22:46.586  491971  N  A   364.0   313.225
22:47.550  492318  N  N   347.0   314.3
22:48.406  492626  N  N   308.0   313.85
22:49.300  492948  N  N   322.0   313.875
22:50.253  493291  N  N   343.0   314.85
22:51.111  493600  N  N   309.0   315.0
22:51.969  493909  N  N   309.0   314.65
22:52.850  494226  N  N   317.0   314.725
22:53.756  494552  N  N   326.0   315.8
22:54.642  494871  N  N   319.0   316.525
22:55.589  495212  N  N   341.0   317.55
22:56.750  495630  N  A   418.0   317.55
22:57.803  496009  N  A   379.0   317.55
22:58.839  496382  N  A   373.0   317.55
22:59.828  496738  N  N   356.0   319.075
23:00.772  497078  N  N   340.0   320.5
23:01.683  497406  N  N   328.0   321.175
23:02.556  497720  N  N   314.0   321.275
23:03.381  498017  N  N   297.0   321.35
23:04.206  498314  N  N   297.0   321.2
23:05.039  498614  N  N   300.0   320.825
23:05.903  498925  N  N   311.0   320.55
23:06.736  499225  N  N   300.0   320.325
23:07.547  499517  N  N   292.0   319.4
23:08.461  499846  N  N   329.0   319.775
23:09.406  500186  N  N   340.0   320.425
23:10.258  500493  N  N   307.0   319.65
23:11.111  500800  N  N   307.0   319.325
23:11.992  501117  N  N   317.0   319.625
23:12.925  501453  N  N   336.0   320.25
23:13.775  501759  N  N   306.0   319.6
23:14.586  502051  N  N   292.0   318.65
23:15.422  502352  N  N   301.0   318.3
23:16.275  502659  N  N   307.0   317.35
23:17.072  502946  N  N   287.0   316.15
23:17.864  503231  N  N   285.0   315.375
23:18.681  503525  N  N   294.0   315.15
23:19.528  503830  N  N   305.0   314.95
23:20.358  504129  N  N   299.0   314.95
23:21.156  504416  N  N   287.0   314.375
23:22.000  504720  N  N   304.0   313.5
23:22.922  505052  N  N   332.0   313.825
23:23.769  505357  N  N   305.0   313.65
23:24.594  505654  N  N   297.0   312.825
23:25.472  505970  N  N   316.0   312.05
23:26.328  506278  N  N   308.0   312.05
23:27.161  506578  N  N   300.0   311.5
23:28.017  506886  N  N   308.0   310.625
23:28.889  507200  N  N   314.0   310.75
23:29.756  507512  N  N   312.0   310.825
23:30.589  507812  N  N   300.0   310.4
23:31.489  508136  N  N   324.0   310.35
23:32.358  508449  N  N   313.0   310.2
23:33.228  508762  N  N   313.0   309.5
23:34.181  509105  N  N   343.0   309.175
23:35.417  509550  N  A   445.0   309.175
23:36.456  509924  N  A   374.0   309.175
23:37.564  510323  N  A   399.0   309.175
23:38.603  510697  N  A   374.0   309.175
23:39.653  511075  N  A   378.0   309.175
23:40.733  511464  N  A   389.0   309.175
23:41.778  511840  N  A   376.0   309.175
23:42.797  512207  N  A   367.0   309.175
23:43.756  512552  N  N   345.0   309.3
23:44.806  512930  N  A   378.0   309.3
23:45.856  513308  N  A   378.0   309.3
23:46.800  513648  N  N   340.0   309.6
23:47.842  514023  N  A   375.0   309.6
23:48.869  514393  N  A   370.0   309.6
23:49.794  514726  N  N   333.0   310.075
23:50.661  515038  N  N   312.0   310.45
23:51.556  515360  N  N   322.0   311.075
23:52.381  515657  N  N   297.0   311.0
23:53.172  515942  N  N   285.0   310.35
23:54.003  516241  N  N   299.0   310.325
23:54.889  516560  N  N   319.0   311.0
23:55.719  516859  N  N   299.0   310.25
23:56.517  517146  N  N   287.0   308.925
23:57.336  517441  N  N   295.0   308.625
23:58.136  517729  N  N   288.0   308.15
23:58.939  518018  N  N   289.0   307.45
23:59.447  518201  |  A   183.0   307.45
23:59.717  518298  N  A   97.0   307.45
24:00.475  518571  N  N   273.0   305.875
24:01.239  518846  N  N   275.0   305.1
24:02.014  519125  N  N   279.0   304.775
24:02.842  519423  N  N   298.0   304.7
24:03.644  519712  N  N   289.0   304.25
24:04.431  519995  N  N   283.0   304.15
24:05.261  520294  N  N   299.0   304.5
24:06.183  520626  N  N   332.0   305.45
24:07.006  520922  N  N   296.0   305.225
24:07.875  521235  N  N   313.0   305.575
24:08.881  521597  N  A   362.0   305.575
24:09.961  521986  N  A   389.0   305.575
24:10.867  522312  N  N   326.0   306.55
24:11.817  522654  N  N   342.0   307.5
24:12.811  523012  N  A   358.0   307.5
24:13.761  523354  N  N   342.0   307.75
24:14.603  523657  N  N   303.0   307.7
24:15.475  523971  N  N   314.0   308.125
24:16.417  524310  N  N   339.0   308.7
24:17.486  524695  N  A   385.0   308.7
24:18.508  525063  N  A   368.0   308.7
24:19.386  525379  N  N   316.0   308.9
24:20.322  525716  N  N   337.0   309.825
24:21.456  526124  N  A   408.0   309.825
24:22.519  526507  N  A   383.0   309.825
24:23.472  526850  N  N   343.0   310.7
24:24.408  527187  N  N   337.0   311.275
24:25.358  527529  N  N   342.0   312.025
24:26.314  527873  N  N   344.0   313.125
24:27.197  528191  N  N   318.0   312.975
24:28.039  528494  N  N   303.0   312.725
24:28.911  528808  N  N   314.0   312.75
24:29.881  529157  N  N   349.0   312.9
24:30.825  529497  N  N   340.0   312.775
24:31.719  529819  N  N   322.0   312.325
24:32.675  530163  N  N   344.0   312.6
24:33.883  530598  N  A   435.0   312.6
24:34.919  530971  N  A   373.0   312.6
24:35.928  531334  N  A   363.0   312.6
24:36.925  531693  N  N   359.0   313.775
24:37.894  532042  N  N   349.0   314.45
24:38.803  532369  N  N   327.0   315.2
24:39.658  532677  N  N   308.0   315.775
24:40.508  532983  N  N   306.0   315.95
24:41.406  533306  N  N   323.0   316.05
24:42.236  533605  N  N   299.0   316.05
24:43.133  533928  N  N   323.0   316.95
24:44.053  534259  N  N   331.0   317.85
24:45.097  534635  N  A   376.0   317.85
24:46.089  534992  N  N   357.0   319.575
24:47.217  535398  N  A   406.0   319.575
24:48.336  535801  N  A   403.0   319.575
24:49.367  536172  N  A   371.0   319.575
24:50.472  536570  N  A   398.0   319.575
24:51.533  536952  N  A   382.0   319.575
24:52.522  537308  N  N   356.0   321.25
24:53.567  537684  N  A   376.0   321.25
24:54.536  538033  N  N   349.0   323.15
24:55.506  538382  N  N   349.0   325.0
24:56.392  538701  N  N   319.0   326.0
24:57.256  539012  N  N   311.0   326.325
24:58.089  539312  N  N   300.0   326.6
24:58.919  539611  N  N   299.0   327.0
24:59.836  539941  N  N   330.0   327.775
25:00.828  540298  N  N   357.0   328.4
25:01.719  540619  N  N   321.0   329.025
25:02.714  540977  N  N   358.0   330.15
25:03.628  541306  N  N   329.0   330.225
25:04.461  541606  N  N   300.0   329.175
25:05.297  541907  N  N   301.0   328.15
25:06.189  542228  N  N   321.0   328.6
25:07.203  542593  N  N   365.0   329.875
25:08.050  542898  N  N   305.0   329.025
25:08.886  543199  N  N   301.0   328.65
25:09.892  543561  N  N   362.0   329.275
25:10.878  543916  N  N   355.0   329.575
25:11.833  544260  N  N   344.0   329.75
25:12.989  544676  N  A   416.0   329.75
25:14.097  545075  N  A   399.0   329.75
25:15.067  545424  N  N   349.0   329.925
25:16.000  545760  N  N   336.0   329.725
25:16.981  546113  N  N   353.0   330.6
25:17.842  546423  N  N   310.0   330.775
25:18.667  546720  N  N   297.0   330.35
25:19.533  547032  N  N   312.0   329.425
25:20.361  547330  N  N   298.0   328.375
25:21.200  547632  N  N   302.0   327.875
25:22.100  547956  N  N   324.0   327.375
25:23.011  548284  N  N   328.0   326.6
25:23.919  548611  N  N   327.0   326.05
25:24.758  548913  N  N   302.0   325.425
25:25.628  549226  N  N   313.0   325.55
25:26.539  549554  N  N   328.0   326.1
25:27.433  549876  N  N   322.0   326.075
25:28.278  550180  N  N   304.0   326.2
25:29.231  550523  N  N   343.0   326.7
25:30.081  550829  N  N   306.0   326.075
25:30.894  551122  N  N   293.0   324.475
25:31.711  551416  N  N   294.0   322.925
25:32.511  551704  N  N   288.0   321.4
25:33.297  551987  N  N   283.0   319.75
25:34.117  552282  N  N   295.0   319.15
25:34.917  552570  N  N   288.0   318.575
25:35.839  552902  N  N   332.0   319.375
25:36.789  553244  N  N   342.0   320.45
25:37.661  553558  N  N   314.0   320.05
25:38.556  553880  N  N   322.0   319.175
25:39.742  554307  N  A   427.0   319.175
25:40.858  554709  N  A   402.0   319.175
25:41.853  555067  N  N   358.0   320.1
25:42.922  555452  N  A   385.0   320.1
25:43.983  555834  N  A   382.0   320.1
25:44.958  556185  N  N   351.0   319.925
25:46.022  556568  N  A   383.0   319.925
25:47.058  556941  N  A   373.0   319.925
25:48.058  557301  N  N   360.0   320.7
25:49.153  557695  N  A   394.0   320.7
25:50.300  558108  N  A   413.0   320.7
25:51.308  558471  N  N   363.0   322.275
25:52.422  558872  N  A   401.0   322.275
25:53.497  559259  N  A   387.0   322.275
25:54.508  559623  N  N   364.0   323.85
25:55.608  560019  N  A   396.0   323.85
25:56.656  560396  N  A   377.0   323.85
25:57.653  560755  N  N   359.0   324.8
25:58.689  561128  N  N   373.0   325.0
25:59.739  561506  N  A   378.0   325.0
26:00.697  561851  N  N   345.0   326.0
26:01.614  562181  N  N   330.0   326.725
26:02.536  562513  N  N   332.0   325.975
26:03.394  562822  N  N   309.0   324.825
26:04.236  563125  N  N   303.0   323.8
26:05.069  563425  N  N   300.0   322.575
26:05.953  563743  N  N   318.0   322.125
26:06.847  564065  N  N   322.0   321.35
26:07.669  564361  N  N   296.0   321.0
26:08.500  564660  N  N   299.0   321.05
26:09.350  564966  N  N   306.0   320.9
26:10.208  565275  N  N   309.0   321.175
26:11.036  565573  N  N   298.0   321.075
26:11.844  565864  N  N   291.0   320.25
26:12.628  566146  N  N   282.0   319.1
26:13.428  566434  N  N   288.0   318.125
26:14.244  566728  N  N   294.0   317.925
26:15.042  567015  N  N   287.0   317.275
26:15.856  567308  N  N   293.0   316.4
26:16.736  567625  N  N   317.0   316.275
26:17.572  567926  N  N   301.0   316.2
26:18.425  568233  N  N   307.0   315.3
26:19.308  568551  N  N   318.0   315.6
26:20.258  568893  N  N   342.0   316.825
26:21.222  569240  N  N   347.0   318.15
26:22.089  569552  N  N   312.0   318.75
26:23.008  569883  N  N   331.0   319.95
26:23.989  570236  N  N   353.0   321.4
26:25.192  570669  N  A   433.0   321.4
26:26.169  571021  N  N   352.0   323.0
26:27.025  571329  N  N   308.0   322.4
26:27.950  571662  N  N   333.0   322.175
26:28.831  571979  N  N   317.0   322.25
26:29.708  572295  N  N   316.0   322.1
26:30.569  572605  N  N   310.0   320.9
26:31.386  572899  N  N   294.0   319.475
26:32.294  573226  N  N   327.0   318.65
26:33.231  573563  N  N   337.0   318.0
26:34.128  573886  N  N   323.0   316.975
26:34.994  574198  N  N   312.0   315.8
26:35.850  574506  N  N   308.0   314.175
26:36.747  574829  N  N   323.0   313.625
26:37.714  575177  N  N   348.0   314.075
26:38.586  575491  N  N   314.0   313.625
26:39.450  575802  N  N   311.0   313.675
26:40.350  576126  N  N   324.0   314.2
26:41.239  576446  N  N   320.0   314.7
26:42.136  576769  N  N   323.0   314.825
26:42.969  577069  N  N   300.0   314.275
26:43.772  577358  N  N   289.0   314.1
26:44.592  577653  N  N   295.0   314.0
26:45.417  577950  N  N   297.0   313.775
26:46.225  578241  N  N   291.0   313.325
26:47.033  578532  N  N   291.0   313.15
26:47.864  578831  N  N   299.0   313.35
26:48.719  579139  N  N   308.0   314.0
26:49.594  579454  N  N   315.0   314.675
26:50.439  579758  N  N   304.0   314.925
26:51.311  580072  N  N   314.0   315.6
26:52.581  580529  N  A   457.0   315.6
26:53.761  580954  N  A   425.0   315.6
26:54.886  581359  N  A   405.0   315.6
26:55.919  581731  N  A   372.0   315.6
26:57.011  582124  N  A   393.0   315.6
26:58.061  582502  N  A   378.0   315.6
26:59.078  582868  N  A   366.0   315.6
27:00.128  583246  N  A   378.0   315.6
27:01.133  583608  N  N   362.0   317.325
27:01.317  583674  |  A   66.0   317.325
27:01.608  583779  |  A   105.0   317.325
27:02.100  583956  N  A   177.0   317.325
27:03.142  584331  N  A   375.0   317.325
27:04.200  584712  N  A   381.0   317.325
27:05.197  585071  N  N   359.0   318.375
27:06.253  585451  N  A   380.0   318.375
27:07.233  585804  |  A   353.0   318.375
27:07.264  585815  N  A   11.0   318.375
27:08.222  586160  N  N   345.0   319.475
27:09.150  586494  N  N   334.0   320.15
27:10.103  586837  N  N   343.0   320.775
27:10.992  587157  N  N   320.0   320.225
27:11.900  587484  N  N   327.0   319.725
27:13.108  587919  N  A   435.0   319.725
27:13.511  588064  |  A   145.0   319.725
27:14.122  588284  N  A   220.0   319.725
27:15.311  588712  N  A   428.0   319.725
27:16.347  589085  N  A   373.0   319.725
27:17.433  589476  N  A   391.0   319.725
27:18.511  589864  N  A   388.0   319.725
27:19.611  590260  N  A   396.0   319.725
27:20.717  590658  N  A   398.0   319.725
27:21.711  591016  N  N   358.0   320.875
27:22.608  591339  N  N   323.0   320.675
27:22.625  591345  |  A   6.0   320.675
27:23.425  591633  N  N   288.0   319.05
27:24.178  591904  N  A   271.0   319.05
27:24.936  592177  N  N   273.0   317.075
27:25.683  592446  N  A   269.0   317.075
27:26.411  592708  N  A   262.0   317.075
27:27.114  592961  N  A   253.0   317.075
27:27.825  593217  N  A   256.0   317.075
27:28.542  593475  N  A   258.0   317.075
27:29.256  593732  N  A   257.0   317.075
27:29.994  593998  N  A   266.0   317.075
27:30.694  594250  N  A   252.0   317.075
27:31.442  594519  N  A   269.0   317.075
27:32.239  594806  N  N   287.0   316.55
27:33.053  595099  N  N   293.0   315.55
27:33.811  595372  N  N   273.0   314.45
27:34.578  595648  N  N   276.0   313.45
27:35.400  595944  N  N   296.0   313.1
27:36.256  596252  N  N   308.0   313.45
27:37.100  596556  N  N   304.0   312.875
27:37.892  596841  N  N   285.0   311.575
27:38.700  597132  N  N   291.0   310.775
27:39.589  597452  N  N   320.0   310.975
27:40.489  597776  N  N   324.0   311.375
27:41.358  598089  N  N   313.0   311.125
27:42.206  598394  N  N   305.0   310.05
27:43.100  598716  N  N   322.0   310.25
27:44.408  599187  N  A   471.0   310.25
27:45.439  599558  N  A   371.0   310.25
27:46.558  599961  N  A   403.0   310.25
27:47.803  600409  N  A   448.0   310.25
27:48.933  600816  N  A   407.0   310.25
27:49.992  601197  N  A   381.0   310.25
27:51.136  601609  N  A   412.0   310.25
27:52.175  601983  N  A   374.0   310.25
27:53.178  602344  N  A   361.0   310.25
27:54.308  602751  N  A   407.0   310.25
27:55.367  603132  N  A   381.0   310.25
27:56.347  603485  N  N   353.0   311.3
27:57.453  603883  N  A   398.0   311.3
27:58.644  604312  N  A   429.0   311.3
27:59.700  604692  N  A   380.0   311.3
28:00.906  605126  N  A   434.0   311.3
28:02.003  605521  N  A   395.0   311.3
28:03.069  605905  N  A   384.0   311.3
28:04.194  606310  N  A   405.0   311.3
28:05.219  606679  N  A   369.0   311.3
28:06.283  607062  N  A   383.0   311.3
28:07.358  607449  N  A   387.0   311.3
28:08.350  607806  N  N   357.0   312.125
28:09.339  608162  N  N   356.0   313.025
28:10.394  608542  N  A   380.0   313.025
28:11.394  608902  N  A   360.0   313.025
28:12.369  609253  N  N   351.0   313.725
28:13.456  609644  N  A   391.0   313.725
28:14.650  610074  N  A   430.0   313.725
28:15.803  610489  N  A   415.0   313.725
28:16.864  610871  N  A   382.0   313.725
28:17.939  611258  N  A   387.0   313.725
28:19.072  611666  N  A   408.0   313.725
28:20.067  612024  N  N   358.0   315.175
28:20.964  612347  N  N   323.0   316.025
28:21.931  612695  N  N   348.0   317.35
28:23.086  613111  N  A   416.0   317.35
28:24.183  613506  N  A   395.0   317.35
28:25.328  613918  N  A   412.0   317.35
28:26.386  614299  N  A   381.0   317.35
28:27.469  614689  N  A   390.0   317.35
28:28.472  615050  N  N   361.0   318.95
28:29.514  615425  N  A   375.0   318.95
28:30.525  615789  N  N   364.0   320.775
28:31.458  616125  N  N   336.0   321.9
28:32.275  616419  N  N   294.0   321.775
28:33.161  616738  N  N   319.0   322.05
28:34.103  617077  N  N   339.0   322.65
28:34.928  617374  N  N   297.0   322.475
28:35.756  617672  N  N   298.0   322.075
28:36.628  617986  N  N   314.0   320.875
28:37.486  618295  N  N   309.0   319.625
28:38.297  618587  N  N   292.0   318.3
28:39.139  618890  N  N   303.0   317.525
28:39.978  619192  N  N   302.0   316.5
28:40.806  619490  N  N   298.0   315.95
28:41.597  619775  N  N   285.0   314.9
28:42.372  620054  N  N   279.0   312.925
28:43.197  620351  N  N   297.0   312.275
28:44.044  620656  N  N   305.0   312.7
28:44.892  620961  N  N   305.0   313.5
28:45.664  621239  N  N   278.0   313.275
28:46.458  621525  N  N   286.0   313.1
28:47.269  621817  N  N   292.0   313.575
28:48.100  622116  N  N   299.0   314.15
28:48.928  622414  N  N   298.0   314.2
28:49.717  622698  N  N   284.0   313.6
28:50.564  623003  N  N   305.0   313.625
28:51.422  623312  N  N   309.0   314.225
28:52.247  623609  N  N   297.0   314.375
28:53.097  623915  N  N   306.0   314.025
28:53.894  624202  N  N   287.0   313.1
28:54.722  624500  N  N   298.0   312.725
28:55.531  624791  N  N   291.0   312.375
28:56.361  625090  N  N   299.0   311.8
28:57.203  625393  N  N   303.0   310.55
28:58.036  625693  N  N   300.0   309.125
28:58.864  625991  N  N   298.0   307.675
28:59.722  626300  N  N   309.0   306.625
29:00.583  626610  N  N   310.0   305.425
29:01.419  626911  N  N   301.0   304.875
29:02.253  627211  N  N   300.0   303.675
29:03.081  627509  N  N   298.0   302.1
29:03.919  627811  N  N   302.0   300.55
29:04.794  628126  N  N   315.0   300.025
29:05.608  628419  N  N   293.0   300.0
29:06.406  628706  N  N   287.0   299.2
29:07.250  629010  N  N   304.0   298.325
29:08.100  629316  N  N   306.0   298.55
29:08.956  629624  N  N   308.0   298.8
29:09.783  629922  N  N   298.0   298.4
29:10.606  630218  N  N   296.0   298.075
29:11.481  630533  N  N   315.0   298.65
29:12.381  630857  N  N   324.0   299.175
29:13.228  631162  N  N   305.0   299.25
29:14.039  631454  N  N   292.0   299.1
29:14.922  631772  N  N   318.0   299.925
29:15.853  632107  N  N   335.0   301.325
29:16.794  632446  N  N   339.0   302.375
29:17.714  632777  N  N   331.0   303.025
29:18.975  633231  N  A   454.0   303.025
29:20.097  633635  N  A   404.0   303.025
29:21.142  634011  N  A   376.0   303.025
29:22.283  634422  N  A   411.0   303.025
29:23.328  634798  N  A   376.0   303.025
29:24.411  635188  N  A   390.0   303.025
29:25.506  635582  N  A   394.0   303.025
29:26.525  635949  N  A   367.0   303.025
29:27.531  636311  N  A   362.0   303.025
29:28.547  636677  N  A   366.0   303.025
29:29.525  637029  N  A   352.0   303.025
29:30.606  637418  N  A   389.0   303.025
29:31.664  637799  N  A   381.0   303.025
29:32.653  638155  N  A   356.0   303.025
29:33.758  638553  N  A   398.0   303.025
29:34.744  638908  N  A   355.0   303.025
29:35.706  639254  N  N   346.0   304.05
29:36.742  639627  N  A   373.0   304.05
29:37.811  640012  N  A   385.0   304.05
29:38.786  640363  N  A   351.0   304.05
29:39.914  640769  N  A   406.0   304.05
29:40.922  641132  N  A   363.0   304.05
29:41.978  641512  N  A   380.0   304.05
29:43.028  641890  N  A   378.0   304.05
29:43.983  642234  N  N   344.0   305.7
29:44.994  642598  N  A   364.0   305.7
29:46.003  642961  N  A   363.0   305.7
29:46.950  643302  N  N   341.0   307.075
29:47.814  643613  N  N   311.0   307.55
29:48.656  643916  N  N   303.0   307.65
29:49.486  644215  N  N   299.0   307.675
29:50.294  644506  N  N   291.0   307.85
29:51.086  644791  N  N   285.0   307.35
29:51.928  645094  N  N   303.0   307.2
29:52.742  645387  N  N   293.0   307.1
29:53.547  645677  N  N   290.0   306.7
29:54.356  645968  N  N   291.0   306.8
29:55.136  646249  N  N   281.0   306.375
29:55.925  646533  N  N   284.0   306.2
29:56.747  646829  N  N   296.0   306.125
29:57.528  647110  N  N   281.0   305.575
29:58.319  647395  N  N   285.0   305.2
29:59.092  647673  N  N   278.0   304.7
29:59.831  647939  N  N   266.0   303.625
30:00.553  648199  N  N   260.0   302.375
30:01.311  648472  N  N   273.0   301.675
30:02.089  648752  N  N   280.0   301.175
30:02.931  649055  N  N   303.0   301.3
30:03.769  649357  N  N   302.0   301.3
30:04.575  649647  N  N   290.0   300.675
30:05.431  649955  N  N   308.0   301.05
